#RAD(Kpc) RAD(arcs)  VROT(km/s) DISP(km/s) INC(deg)  P.A.(deg) Z0(pc)    Z0(arcs)  DENS(un)  XPOS(pix) YPOS(pix) VSYS(km/s) VRAD(km/s) 
1.004     15.000     31.473     0.528      71.500    196.841   669.060   10.000    1.0e+00   510.300   511.900   660.700    0.000      
3.011     45.000     128.144    0.601      71.500    213.209   669.060   10.000    1.0e+00   510.300   511.900   660.700    0.000      
5.018     75.000     164.511    1.073      71.500    216.874   669.060   10.000    1.0e+00   510.300   511.900   660.700    0.000      
7.025     105.000    122.725    0.201      71.500    217.731   669.060   10.000    1.0e+00   510.300   511.900   660.700    0.000      
9.032     135.000    169.769    8.212      71.500    218.002   669.060   10.000    1.0e+00   510.300   511.900   660.700    0.000      
11.039    165.000    182.471    9.651      71.500    217.856   669.060   10.000    1.0e+00   510.300   511.900   660.700    0.000      
13.047    195.000    186.656    10.365     71.500    217.268   669.060   10.000    1.0e+00   510.300   511.900   660.700    0.000      
15.054    225.000    185.273    0.344      71.500    216.338   669.060   10.000    1.0e+00   510.300   511.900   660.700    0.000      
17.061    255.000    180.092    0.178      71.500    215.225   669.060   10.000    1.0e+00   510.300   511.900   660.700    0.000      
19.068    285.000    180.885    0.314      71.500    214.104   669.060   10.000    1.0e+00   510.300   511.900   660.700    0.000      
21.075    315.000    179.894    0.362      71.500    213.116   669.060   10.000    1.0e+00   510.300   511.900   660.700    0.000      
25.090    375.000    178.247    0.429      71.500    211.650   669.060   10.000    1.0e+00   510.300   511.900   660.700    0.000      
49.176    735.000    19.681     0.294      71.500    3.235     669.060   10.000    1.0e+00   510.300   511.900   660.700    0.000      
